	Size	Bandwidth(MB/s)
0	1	0.63
1	2	1.27
2	4	2.53
3	8	5.10
4	16	10.26
5	32	20.51
6	64	40.66
7	128	77.83
8	256	152.45
9	512	294.33
10	1024	530.37
11	2048	751.31
12	4096	920.10
13	8192	1062.21
14	16384	1106.45
15	32768	1306.51
16	65536	1423.01
17	131072	1484.97
18	262144	1503.89
19	524288	1519.08
20	1048576	1529.75
21	2097152	1535.47
22	4194304	1537.90
