	Size	Bandwidth(MB/s)
0	1	4.31
1	2	8.66
2	4	17.30
3	8	34.69
4	16	60.47
5	32	123.34
6	64	208.65
7	128	354.60
8	256	606.06
9	512	1352.70
10	1024	2479.38
11	2048	4149.84
12	4096	1579.66
13	8192	2446.41
14	16384	3147.58
15	32768	4165.78
16	65536	4994.65
17	131072	5572.18
18	262144	5930.49
19	524288	6126.31
20	1048576	6229.08
21	2097152	5980.09
22	4194304	1622.14
