	Size	Bandwidth(MB/s)
0	1	4.42
1	2	8.94
2	4	18.16
3	8	36.25
4	16	66.15
5	32	137.59
6	64	195.98
7	128	191.81
8	256	290.35
9	512	472.51
10	1024	643.09
11	2048	820.29
12	4096	1224.01
13	8192	1943.46
14	16384	2729.04
15	32768	3784.94
16	65536	4698.03
17	131072	5370.32
18	262144	5809.61
19	524288	5987.71
20	1048576	6150.28
21	2097152	5905.68
22	4194304	1619.73
