	Size	Bandwidth(MB/s)
0	1	4.30
1	2	8.67
2	4	1.14
3	8	34.36
4	16	60.30
5	32	120.74
6	64	210.18
7	128	356.92
8	256	602.70
9	512	187.82
10	1024	84.43
11	2048	167.72
12	4096	517.09
13	8192	244.01
14	16384	895.31
15	32768	1305.50
16	65536	816.29
17	131072	993.45
18	262144	2602.11
19	524288	2039.42
20	1048576	2727.90
21	2097152	2583.48
22	4194304	759.04
