	Size	Bandwidth(MB/s)
0	1	4.31
1	2	8.69
2	4	17.38
3	8	34.82
4	16	60.72
5	32	123.47
6	64	209.91
7	128	358.69
8	256	607.09
9	512	1348.89
10	1024	2474.80
11	2048	4168.21
12	4096	1513.93
13	8192	2367.05
14	16384	3057.10
15	32768	4123.68
16	65536	4932.85
17	131072	5541.90
18	262144	5913.33
19	524288	5903.61
20	1048576	5708.69
21	2097152	5606.91
22	4194304	1626.68
