	Size	Bandwidth(MB/s)
0	1	4.32
1	2	8.67
2	4	17.49
3	8	34.87
4	16	60.75
5	32	124.38
6	64	209.03
7	128	353.71
8	256	603.41
9	512	1342.35
10	1024	2456.60
11	2048	4170.03
12	4096	1530.47
13	8192	2405.75
14	16384	3169.16
15	32768	4188.43
16	65536	4994.05
17	131072	5572.07
18	262144	5934.56
19	524288	6121.23
20	1048576	5922.75
21	2097152	5708.63
22	4194304	1636.34
